 PENELOPE (v. 2014)  Material data file ...............
 Material: MOLYBDENUM  (42)                                              
 Mass density = 1.02200000E+01 g/cm**3
 Number of elements in the molecule =  1
   atomic number = 42,  atoms/molecule = 1.00000000E+00
 Mean excitation energy = 4.24000000E+02 eV
 Number of oscillators = 13 (E/P inelastic model)
   1  6.00000000E+00  0.00000000E+00  2.30374267E+01   0  30
   2  4.00000000E+00  4.20000000E+01  7.13225436E+01  42  30
   3  2.00000000E+00  4.50000000E+01  7.54103505E+01  42  30
   4  2.00000000E+00  6.80000000E+01  1.13287302E+02  42  10
   5  6.00000000E+00  2.34000000E+02  3.88501859E+02  42   9
   6  4.00000000E+00  2.37000000E+02  3.93321152E+02  42   8
   7  4.00000000E+00  3.99000000E+02  6.61846797E+02  42   7
   8  2.00000000E+00  4.16000000E+02  6.89945445E+02  42   6
   9  2.00000000E+00  5.11000000E+02  8.47469693E+02  42   5
  10  4.00000000E+00  2.52700000E+03  4.19059580E+03  42   4
  11  2.00000000E+00  2.63200000E+03  4.36470448E+03  42   3
  12  2.00000000E+00  2.87200000E+03  4.76269948E+03  42   2
  13  2.00000000E+00  2.00060000E+04  3.31762964E+04  42   1
 Number of shells = 13 (Compton IA model)
   1  6.00000000E+00  0.00000000E+00  5.77128309E-01   0  30
   2  4.00000000E+00  4.20000000E+01  3.06869000E-01  42  30
   3  2.00000000E+00  4.50000000E+01  2.99719000E-01  42  30
   4  2.00000000E+00  6.80000000E+01  4.50429000E-01  42  10
   5  6.00000000E+00  2.34000000E+02  7.53835000E-02  42   9
   6  4.00000000E+00  2.37000000E+02  7.48120000E-02  42   8
   7  4.00000000E+00  3.99000000E+02  1.07643000E-01  42   7
   8  2.00000000E+00  4.16000000E+02  1.05307000E-01  42   6
   9  2.00000000E+00  5.11000000E+02  1.75845000E-01  42   5
  10  4.00000000E+00  2.52700000E+03  3.71129000E-02  42   4
  11  2.00000000E+00  2.63200000E+03  3.60285000E-02  42   3
  12  2.00000000E+00  2.87200000E+03  7.19826000E-02  42   2
  13  2.00000000E+00  2.00060000E+04  1.98120000E-02  42   1
 *** RELAX:  Z = 42,  no. of shells = 14,  no. of transitions =  514
   1 1s1/2 2  2.00060E+04  4.52000E+00  1.98120E-02
   2 2s1/2 2  2.87200E+03  3.80000E+00  7.19826E-02
   3 2p1/2 2  2.63200E+03  1.83000E+00  3.60285E-02
   4 2p3/2 4  2.52700E+03  1.69000E+00  3.71129E-02
   5 3s1/2 2  5.11000E+02  6.30000E+00  1.75845E-01
   6 3p1/2 2  4.16000E+02  2.10000E+00  1.05307E-01
   7 3p3/2 4  3.99000E+02  2.10000E+00  1.07643E-01
   8 3d3/2 4  2.37000E+02  2.20000E-01  7.48120E-02
   9 3d5/2 6  2.34000E+02  1.20000E-01  7.53835E-02
  10 4s1/2 2  6.80000E+01  3.20000E+00  4.50429E-01
  11 4p1/2 2  4.50000E+01  2.20000E+00  2.99719E-01
  12 4p3/2 4  4.20000E+01  1.60000E+00  3.06869E-01
  13 4d3/2 4  8.31700E+00  0.00000E+00  3.23099E-01
  17 5s1/2 2  8.31700E+00  0.00000E+00  1.66631E+00
   1  3  0  2.21309E-01  1.73743E+04
   1  4  0  4.21718E-01  1.74794E+04
   1  6  0  3.43589E-02  1.95902E+04
   1  7  0  6.68877E-02  1.96083E+04
   1  8  0  1.66919E-04  1.97714E+04
   1  9  0  2.36039E-04  1.97764E+04
   1 11  0  6.34137E-03  1.99199E+04
   1 12  0  1.22259E-02  1.99225E+04
   1 13  0  6.70827E-06  1.99580E+04
   1 14  0  9.38546E-06  1.99582E+04
   1  2  2  1.68986E-02  1.42720E+04
   1  2  3  1.91303E-02  1.44890E+04
   1  2  4  2.89512E-02  1.45975E+04
   1  2  5  5.45088E-03  1.66244E+04
   1  2  6  3.21842E-03  1.67089E+04
   1  2  7  4.85455E-03  1.67269E+04
   1  2  8  2.65431E-04  1.68780E+04
   1  2  9  3.25897E-04  1.68815E+04
   1  2 10  9.48087E-04  1.70489E+04
   1  2 11  4.90095E-04  1.70734E+04
   1  2 12  7.33913E-04  1.70760E+04
   1  2 13  1.17274E-05  1.71115E+04
   1  2 14  1.41970E-05  1.71117E+04
   1  2 17  4.93812E-05  1.71125E+04
   1  3  3  2.95095E-03  1.47060E+04
   1  3  4  6.59412E-02  1.48145E+04
   1  3  5  2.56222E-03  1.68414E+04
   1  3  6  9.06126E-04  1.69259E+04
   1  3  7  9.32469E-03  1.69439E+04
   1  3  8  3.44428E-04  1.70950E+04
   1  3  9  1.21905E-03  1.70985E+04
   1  3 10  4.31455E-04  1.72659E+04
   1  3 11  1.36419E-04  1.72904E+04
   1  3 12  1.37401E-03  1.72930E+04
   1  3 13  1.48138E-05  1.73285E+04
   1  3 14  5.30846E-05  1.73287E+04
   1  3 17  2.22206E-05  1.73295E+04
   1  4  4  3.48003E-02  1.49230E+04
   1  4  5  3.87085E-03  1.69499E+04
   1  4  6  9.23534E-03  1.70344E+04
   1  4  7  1.00617E-02  1.70524E+04
   1  4  8  1.48384E-03  1.72035E+04
   1  4  9  1.41037E-03  1.72070E+04
   1  4 10  6.51830E-04  1.73744E+04
   1  4 11  1.36844E-03  1.73989E+04
   1  4 12  1.48879E-03  1.74015E+04
   1  4 13  6.48092E-05  1.74370E+04
   1  4 14  6.11092E-05  1.74372E+04
   1  4 17  3.33331E-05  1.74380E+04
   1  5  5  4.33314E-04  1.89768E+04
   1  5  6  4.34543E-04  1.90613E+04
   1  5  7  6.53053E-04  1.90793E+04
   1  5  8  3.33339E-05  1.92305E+04
   1  5  9  4.01212E-05  1.92339E+04
   1  5 10  1.50608E-04  1.94013E+04
   1  5 11  6.60460E-05  1.94258E+04
   1  5 12  9.87621E-05  1.94285E+04
   1  5 13  1.23453E-06  1.94639E+04
   1  5 14  1.85179E-06  1.94641E+04
   1  5 17  8.02442E-06  1.94649E+04
   1  6  6  6.66619E-05  1.91457E+04
   1  6  7  1.32271E-03  1.91637E+04
   1  6  8  3.76519E-05  1.93149E+04
   1  6  9  1.35791E-04  1.93184E+04
   1  6 10  7.34510E-05  1.94857E+04
   1  6 11  1.97514E-05  1.95103E+04
   1  6 12  1.95045E-04  1.95129E+04
   1  6 13  1.85172E-06  1.95484E+04
   1  6 14  6.17228E-06  1.95486E+04
   1  6 17  3.70323E-06  1.95494E+04
   1  7  7  7.28964E-04  1.91817E+04
   1  7  8  1.70979E-04  1.93329E+04
   1  7  9  1.58636E-04  1.93364E+04
   1  7 10  1.09868E-04  1.95037E+04
   1  7 11  1.96280E-04  1.95283E+04
   1  7 12  2.15414E-04  1.95309E+04
   1  7 13  7.40703E-06  1.95664E+04
   1  7 14  6.78987E-06  1.95666E+04
   1  7 17  5.55528E-06  1.95674E+04
   1  8  9  1.78998E-05  1.94875E+04
   1  8 10  5.55524E-06  1.96549E+04
   1  8 11  5.55524E-06  1.96795E+04
   1  8 12  2.40713E-05  1.96821E+04
   1  8 14  6.17238E-07  1.97178E+04
   1  9  9  4.43629E-06  1.94910E+04
   1  9 10  6.97157E-06  1.96584E+04
   1  9 11  1.96463E-05  1.96829E+04
   1  9 12  2.34493E-05  1.96855E+04
   1  9 13  6.33760E-07  1.97210E+04
   1  9 14  6.33760E-07  1.97212E+04
   1  9 17  6.33760E-07  1.97220E+04
   1 10 10  1.32246E-05  1.98257E+04
   1 10 11  1.13361E-05  1.98503E+04
   1 10 12  1.70036E-05  1.98529E+04
   1 10 17  1.25955E-06  1.98894E+04
   1 11 11  1.20817E-06  1.98749E+04
   1 11 12  2.83906E-05  1.98775E+04
   1 11 14  6.04070E-07  1.99132E+04
   1 11 17  6.04070E-07  1.99140E+04
   1 12 12  1.54390E-05  1.98801E+04
   1 12 13  1.18759E-06  1.99155E+04
   1 12 14  1.18759E-06  1.99158E+04
   1 12 17  5.93780E-07  1.99166E+04
   2  3  0  1.46510E-05  2.17000E+02
   2  4  0  9.43281E-05  3.25500E+02
   2  6  0  2.06580E-03  2.45568E+03
   2  7  0  3.55290E-03  2.47307E+03
   2  8  0  1.77590E-05  2.63370E+03
   2  9  0  2.64600E-05  2.63780E+03
   2 11  0  3.21860E-04  2.80143E+03
   2 12  0  5.58410E-04  2.80404E+03
   2 13  0  5.41000E-07  2.83950E+03
   2 14  0  8.04221E-07  2.83973E+03
   2  3 10  2.21850E-02  1.47370E+02
   2  3 11  1.44546E-02  1.71930E+02
   2  3 12  1.97679E-02  1.74540E+02
   2  3 13  1.91069E-03  2.10000E+02
   2  3 14  3.22715E-03  2.10230E+02
   2  3 17  1.11875E-03  2.11030E+02
   2  4  8  2.74324E-01  8.50500E+01
   2  4  9  3.91700E-01  8.85000E+01
   2  4 10  3.42468E-02  2.55870E+02
   2  4 11  1.46577E-02  2.80430E+02
   2  4 12  2.97016E-02  2.83040E+02
   2  4 13  7.24798E-03  3.18500E+02
   2  4 14  9.63521E-03  3.18730E+02
   2  4 17  1.71710E-03  3.19530E+02
   2  5  5  5.96311E-03  1.85832E+03
   2  5  6  1.16176E-02  1.94277E+03
   2  5  7  2.21331E-02  1.96078E+03
   2  5  8  1.70780E-02  2.11196E+03
   2  5  9  2.46913E-02  2.11541E+03
   2  5 10  1.80049E-03  2.28278E+03
   2  5 11  1.74189E-03  2.30734E+03
   2  5 12  3.29417E-03  2.30995E+03
   2  5 13  6.76875E-04  2.34541E+03
   2  5 14  9.69560E-04  2.34564E+03
   2  5 17  9.10497E-05  2.34644E+03
   2  6  6  9.72663E-05  2.02722E+03
   2  6  7  5.02318E-04  2.04523E+03
   2  6  8  3.65981E-04  2.19641E+03
   2  6  9  5.85522E-03  2.19986E+03
   2  6 10  1.45418E-03  2.36723E+03
   2  6 11  1.86530E-05  2.39179E+03
   2  6 12  7.19511E-05  2.39440E+03
   2  6 13  1.42128E-05  2.42986E+03
   2  6 14  1.69220E-04  2.43009E+03
   2  6 17  7.15070E-05  2.43089E+03
   2  7  7  5.32099E-04  2.06324E+03
   2  7  8  5.06747E-03  2.21442E+03
   2  7  9  3.54703E-03  2.21787E+03
   2  7 10  2.77155E-03  2.38524E+03
   2  7 11  7.19537E-05  2.40980E+03
   2  7 12  1.27913E-04  2.41241E+03
   2  7 13  1.39023E-04  2.44787E+03
   2  7 14  9.86041E-05  2.44810E+03
   2  7 17  1.36363E-04  2.44890E+03
   2  8  8  8.47875E-04  2.36560E+03
   2  8  9  3.43383E-02  2.36905E+03
   2  8 10  2.04793E-03  2.53642E+03
   2  8 11  7.23957E-05  2.56098E+03
   2  8 12  7.43949E-04  2.56359E+03
   2  8 13  6.70654E-05  2.59905E+03
   2  8 14  1.08018E-03  2.59928E+03
   2  8 17  1.00377E-04  2.60008E+03
   2  9  9  9.63668E-03  2.37250E+03
   2  9 10  2.96911E-03  2.53987E+03
   2  9 11  8.20348E-04  2.56443E+03
   2  9 12  5.42748E-04  2.56704E+03
   2  9 13  1.08198E-03  2.60250E+03
   2  9 14  6.24913E-04  2.60273E+03
   2  9 17  1.45240E-04  2.60353E+03
   2 10 10  1.30578E-04  2.70724E+03
   2 10 11  2.18521E-04  2.73180E+03
   2 10 12  4.13062E-04  2.73441E+03
   2 10 13  8.12784E-05  2.76987E+03
   2 10 14  1.16366E-04  2.77010E+03
   2 10 17  1.33248E-05  2.77090E+03
   2 11 11  1.10414E-06  2.75636E+03
   2 11 12  1.26980E-05  2.75897E+03
   2 11 13  3.31241E-06  2.79443E+03
   2 11 14  3.03646E-05  2.79466E+03
   2 11 17  1.32499E-05  2.79546E+03
   2 12 12  9.52715E-06  2.76158E+03
   2 12 13  2.48771E-05  2.79704E+03
   2 12 14  1.85249E-05  2.79727E+03
   2 12 17  2.43479E-05  2.79807E+03
   2 13 13  1.33249E-06  2.83250E+03
   2 13 14  3.15351E-05  2.83273E+03
   2 13 17  3.99746E-06  2.83353E+03
   2 14 14  9.32709E-06  2.83296E+03
   2 14 17  5.77392E-06  2.83376E+03
   3  4  0  5.40141E-09  1.08500E+02
   3  5  0  3.12821E-03  2.12026E+03
   3  7  0  3.06781E-05  2.23290E+03
   3  8  0  3.23221E-02  2.39483E+03
   3 10  0  2.47530E-04  2.55987E+03
   3 12  0  1.27480E-06  2.58704E+03
   3 13  0  1.11150E-03  2.62250E+03
   3  4 11  5.77051E-02  6.34300E+01
   3  4 12  2.18574E-02  6.60400E+01
   3  4 13  2.57433E-02  1.01500E+02
   3  4 14  1.01173E-02  1.01730E+02
   3  4 17  8.16958E-04  1.02530E+02
   3  5  5  1.51549E-03  1.64132E+03
   3  5  6  3.24837E-02  1.72577E+03
   3  5  7  3.05064E-03  1.74378E+03
   3  5  8  1.84952E-03  1.89496E+03
   3  5  9  4.66779E-03  1.89841E+03
   3  5 10  4.32766E-04  2.06578E+03
   3  5 11  3.55324E-03  2.09034E+03
   3  5 12  4.08470E-04  2.09295E+03
   3  5 13  5.46657E-05  2.12841E+03
   3  5 14  1.27562E-04  2.12864E+03
   3  5 17  2.12592E-05  2.12944E+03
   3  6  6  3.08830E-02  1.81022E+03
   3  6  7  1.01539E-01  1.82823E+03
   3  6  8  5.25228E-02  1.97941E+03
   3  6  9  9.42097E-02  1.98286E+03
   3  6 10  5.75189E-03  2.15023E+03
   3  6 11  8.11790E-03  2.17479E+03
   3  6 12  1.48633E-02  2.17740E+03
   3  6 13  2.07271E-03  2.21286E+03
   3  6 14  3.69296E-03  2.21309E+03
   3  6 17  2.97626E-04  2.21389E+03
   3  7  7  2.74540E-03  1.84624E+03
   3  7  8  6.49692E-02  1.99742E+03
   3  7  9  8.86803E-03  2.00087E+03
   3  7 10  4.70730E-04  2.16824E+03
   3  7 11  1.14901E-02  2.19280E+03
   3  7 12  6.89417E-04  2.19541E+03
   3  7 13  2.30051E-03  2.23087E+03
   3  7 14  2.91557E-04  2.23110E+03
   3  7 17  2.42954E-05  2.23190E+03
   3  8  8  5.73832E-02  2.14860E+03
   3  8  9  2.52304E-01  2.15205E+03
   3  8 10  3.38623E-04  2.31942E+03
   3  8 11  5.94034E-03  2.34398E+03
   3  8 12  9.08649E-03  2.34659E+03
   3  8 13  4.03911E-03  2.38205E+03
   3  8 14  9.29021E-03  2.38228E+03
   3  8 17  1.82213E-05  2.38308E+03
   3  9  9  1.19743E-02  2.15550E+03
   3  9 10  7.22785E-04  2.32287E+03
   3  9 11  9.72526E-03  2.34743E+03
   3  9 12  1.14491E-03  2.35004E+03
   3  9 13  7.92487E-03  2.38550E+03
   3  9 14  8.18492E-04  2.38573E+03
   3  9 17  3.64433E-05  2.38653E+03
   3 10 10  3.68029E-05  2.49024E+03
   3 10 11  7.65523E-04  2.51480E+03
   3 10 12  7.72831E-05  2.51741E+03
   3 10 13  1.28807E-05  2.55287E+03
   3 10 14  2.39221E-05  2.55310E+03
   3 10 17  3.68029E-06  2.55390E+03
   3 11 11  5.17793E-04  2.53936E+03
   3 11 12  1.68244E-03  2.54197E+03
   3 11 13  2.32323E-04  2.57743E+03
   3 11 14  3.82663E-04  2.57766E+03
   3 11 17  3.18873E-05  2.57846E+03
   3 12 12  4.40372E-05  2.54458E+03
   3 12 13  3.23444E-04  2.58004E+03
   3 12 14  3.79625E-05  2.58027E+03
   3 12 17  3.03701E-06  2.58107E+03
   3 13 13  6.22559E-05  2.61550E+03
   3 13 14  2.64215E-04  2.61573E+03
   3 14 14  1.21484E-05  2.61596E+03
   3 14 17  1.51863E-06  2.61676E+03
   4  5  0  4.80691E-03  2.01571E+03
   4  6  0  2.04171E-05  2.11080E+03
   4  7  0  1.93151E-05  2.12800E+03
   4  8  0  3.25261E-03  2.28988E+03
   4  9  0  2.88901E-02  2.29319E+03
   4 10  0  2.43921E-04  2.45137E+03
   4 11  0  6.49682E-07  2.47593E+03
   4 12  0  6.21102E-07  2.47854E+03
   4 13  0  1.10700E-04  2.51400E+03
   4 14  0  9.76493E-04  2.51423E+03
   4  5  5  1.82547E-03  1.53282E+03
   4  5  6  1.37352E-03  1.61727E+03
   4  5  7  3.69039E-02  1.63528E+03
   4  5  8  3.47225E-03  1.78646E+03
   4  5  9  3.64786E-03  1.78991E+03
   4  5 10  5.21805E-04  1.95728E+03
   4  5 11  1.78814E-04  1.98184E+03
   4  5 12  4.04769E-03  1.98445E+03
   4  5 13  8.94067E-05  2.01991E+03
   4  5 14  8.94067E-05  2.02014E+03
   4  5 17  2.60089E-05  2.02094E+03
   4  6  6  5.00703E-04  1.70172E+03
   4  6  7  6.04716E-02  1.71973E+03
   4  6  8  4.07553E-03  1.87091E+03
   4  6  9  3.68806E-02  1.87436E+03
   4  6 10  2.08084E-04  2.04173E+03
   4  6 11  1.28422E-04  2.06629E+03
   4  6 12  6.82620E-03  2.06890E+03
   4  6 13  1.54431E-04  2.10436E+03
   4  6 14  1.25338E-03  2.10459E+03
   4  6 17  1.13797E-05  2.10539E+03
   4  7  7  8.71832E-02  1.73774E+03
   4  7  8  8.37669E-02  1.88892E+03
   4  7  9  1.28256E-01  1.89237E+03
   4  7 10  6.48945E-03  2.05974E+03
   4  7 11  8.78581E-03  2.08430E+03
   4  7 12  2.26032E-02  2.08691E+03
   4  7 13  3.22511E-03  2.12237E+03
   4  7 14  4.87665E-03  2.12260E+03
   4  7 17  3.34860E-04  2.12340E+03
   4  8  8  1.15759E-02  2.04010E+03
   4  8  9  2.25887E-01  2.04355E+03
   4  8 10  5.67325E-04  2.21092E+03
   4  8 11  5.88461E-04  2.23548E+03
   4  8 12  8.94734E-03  2.23809E+03
   4  8 13  8.20896E-04  2.27355E+03
   4  8 14  7.15401E-03  2.27378E+03
   4  8 17  2.92597E-05  2.27458E+03
   4  9  9  1.53710E-01  2.04700E+03
   4  9 10  6.32331E-04  2.21437E+03
   4  9 11  5.05864E-03  2.23893E+03
   4  9 12  1.49617E-02  2.24154E+03
   4  9 13  8.07723E-03  2.27700E+03
   4  9 14  1.04982E-02  2.27723E+03
   4  9 17  3.25100E-05  2.27803E+03
   4 10 10  4.35809E-05  2.38174E+03
   4 10 11  3.22117E-05  2.40630E+03
   4 10 12  8.29900E-04  2.40891E+03
   4 10 13  1.70525E-05  2.44437E+03
   4 10 14  1.89481E-05  2.44460E+03
   4 10 17  3.78952E-06  2.44540E+03
   4 11 11  8.12746E-06  2.43086E+03
   4 11 12  9.91627E-04  2.43347E+03
   4 11 13  2.27578E-05  2.46893E+03
   4 11 14  1.75566E-04  2.46916E+03
   4 11 17  1.62557E-06  2.46996E+03
   4 12 12  1.43211E-03  2.43608E+03
   4 12 13  3.44616E-04  2.47154E+03
   4 12 14  5.65688E-04  2.47177E+03
   4 12 17  3.73887E-05  2.47257E+03
   4 13 13  1.30044E-05  2.50700E+03
   4 13 14  2.30826E-04  2.50723E+03
   4 14 14  1.59295E-04  2.50746E+03
   4 14 17  1.62559E-06  2.50826E+03
   5  6  0  1.27743E-05  8.44500E+01
   5  7  0  4.65177E-05  1.02460E+02
   5 11  0  5.95832E-05  4.49020E+02
   5 12  0  9.07301E-05  4.51630E+02
   5  6 13  1.62743E-02  7.74500E+01
   5  6 14  2.04641E-02  7.76800E+01
   5  6 17  2.21145E-03  7.84800E+01
   5  7 11  1.05310E-01  5.73900E+01
   5  7 12  1.71755E-01  6.00000E+01
   5  7 13  1.78783E-02  9.54600E+01
   5  7 14  2.75581E-02  9.56900E+01
   5  7 17  3.67254E-03  9.64900E+01
   5  8 10  3.89883E-02  1.84010E+02
   5  8 11  6.65408E-03  2.08570E+02
   5  8 12  5.08479E-03  2.11180E+02
   5  8 13  1.78940E-03  2.46640E+02
   5  8 14  1.88320E-03  2.46870E+02
   5  8 17  1.13596E-03  2.47670E+02
   5  9 10  5.76118E-02  1.87460E+02
   5  9 11  2.11854E-03  2.12020E+02
   5  9 12  1.35443E-02  2.14630E+02
   5  9 13  1.98662E-03  2.50090E+02
   5  9 14  3.45487E-03  2.50320E+02
   5  9 17  1.67682E-03  2.51120E+02
   5 10 10  1.82067E-02  3.54830E+02
   5 10 11  2.59272E-02  3.79390E+02
   5 10 12  4.89149E-02  3.82000E+02
   5 10 13  1.28393E-02  4.17460E+02
   5 10 14  1.86260E-02  4.17690E+02
   5 10 17  1.21370E-03  4.18490E+02
   5 11 11  1.45390E-03  4.03950E+02
   5 11 12  3.59165E-03  4.06560E+02
   5 11 13  6.14115E-04  4.42020E+02
   5 11 14  1.79111E-04  4.42250E+02
   5 11 17  6.65304E-04  4.43050E+02
   5 12 12  4.83198E-03  4.09170E+02
   5 12 13  4.67219E-04  4.44630E+02
   5 12 14  1.41852E-03  4.44860E+02
   5 12 17  1.30724E-03  4.45660E+02
   5 13 13  3.15252E-05  4.80090E+02
   5 13 14  6.93508E-05  4.80320E+02
   5 13 17  2.96337E-04  4.81120E+02
   5 14 14  6.72499E-05  4.80550E+02
   5 14 17  4.28742E-04  4.81350E+02
   6  8  0  3.87230E-04  1.79800E+02
   6 10  0  1.31530E-04  3.40010E+02
   6 13  0  7.39280E-05  4.02640E+02
   6  8 10  1.61402E-01  9.95600E+01
   6  8 11  1.67080E-01  1.24120E+02
   6  8 12  2.58007E-01  1.26730E+02
   6  8 13  1.49526E-02  1.62190E+02
   6  8 14  1.16747E-02  1.62420E+02
   6  8 17  6.21474E-03  1.63220E+02
   6  9 10  2.66750E-02  1.03010E+02
   6  9 11  2.31553E-01  1.27570E+02
   6  9 12  2.45258E-02  1.30180E+02
   6  9 13  3.60609E-03  1.65640E+02
   6  9 14  2.24445E-03  1.65870E+02
   6  9 17  7.85542E-04  1.66670E+02
   6 10 10  6.48330E-04  2.70380E+02
   6 10 11  1.03914E-02  2.94940E+02
   6 10 12  1.60794E-03  2.97550E+02
   6 10 13  1.83789E-04  3.33010E+02
   6 10 14  3.26016E-04  3.33240E+02
   6 10 17  4.15596E-05  3.34040E+02
   6 11 11  6.54210E-03  3.19500E+02
   6 11 12  2.10256E-02  3.22110E+02
   6 11 13  4.76422E-03  3.57570E+02
   6 11 14  7.98343E-03  3.57800E+02
   6 11 17  4.00659E-04  3.58600E+02
   6 12 12  5.43456E-04  3.24720E+02
   6 12 13  6.61252E-04  3.60180E+02
   6 12 14  3.84865E-04  3.60410E+02
   6 12 17  4.82279E-05  3.61210E+02
   6 13 13  4.35891E-05  3.95640E+02
   6 13 14  1.12219E-04  3.95870E+02
   6 13 17  6.49193E-06  3.96670E+02
   6 14 14  2.04043E-05  3.96100E+02
   6 14 17  9.27475E-06  3.96900E+02
   7  8  0  2.99625E-05  1.51180E+02
   7  9  0  2.92486E-04  1.65600E+02
   7 10  0  1.54076E-04  3.22000E+02
   7 13  0  9.19067E-06  3.84630E+02
   7 14  0  7.58636E-05  3.84860E+02
   7  8 10  3.21577E-02  8.15500E+01
   7  8 11  2.26212E-02  1.06110E+02
   7  8 12  1.66914E-01  1.08720E+02
   7  8 13  3.60189E-03  1.44180E+02
   7  8 14  2.74161E-03  1.44410E+02
   7  8 17  1.08244E-03  1.45210E+02
   7  9 10  1.55120E-01  8.50000E+01
   7  9 11  1.50074E-01  1.09560E+02
   7  9 12  3.44715E-01  1.12170E+02
   7  9 13  9.25682E-03  1.47630E+02
   7  9 14  2.13604E-02  1.47860E+02
   7  9 17  5.88134E-03  1.48660E+02
   7 10 10  7.96241E-04  2.52370E+02
   7 10 11  1.20794E-03  2.76930E+02
   7 10 12  1.86110E-02  2.79540E+02
   7 10 13  3.67964E-04  3.15000E+02
   7 10 14  4.64483E-04  3.15230E+02
   7 10 17  5.12724E-05  3.16030E+02
   7 11 11  2.15440E-04  3.01490E+02
   7 11 12  1.80479E-02  3.04100E+02
   7 11 13  1.98098E-04  3.39560E+02
   7 11 14  8.34323E-04  3.39790E+02
   7 11 17  3.61498E-05  3.40590E+02
   7 12 12  2.36222E-02  3.06710E+02
   7 12 13  7.89697E-03  3.42170E+02
   7 12 14  1.07836E-02  3.42400E+02
   7 12 17  5.90031E-04  3.43200E+02
   7 13 13  1.19609E-05  3.77630E+02
   7 13 14  8.97082E-05  3.77860E+02
   7 13 17  5.98051E-06  3.78660E+02
   7 14 14  7.17652E-05  3.78090E+02
   7 14 17  8.54350E-06  3.78890E+02
   8 11  0  1.19401E-04  1.95380E+02
   8 12  0  2.11982E-05  1.97990E+02
   8 10 10  1.72992E-02  1.01190E+02
   8 10 11  8.96720E-02  1.25750E+02
   8 10 12  1.02695E-01  1.28360E+02
   8 10 13  1.60549E-01  1.63820E+02
   8 10 14  3.24590E-02  1.64050E+02
   8 10 17  7.28879E-04  1.64850E+02
   8 11 12  5.28905E-02  1.52920E+02
   8 11 13  1.08693E-01  1.88380E+02
   8 11 14  1.14925E-02  1.88610E+02
   8 11 17  1.04473E-03  1.89410E+02
   8 12 12  2.74547E-02  1.55530E+02
   8 12 13  2.42259E-01  1.90990E+02
   8 12 14  1.24150E-02  1.91220E+02
   8 12 17  1.60348E-03  1.92020E+02
   8 13 13  3.21186E-02  2.26450E+02
   8 13 14  9.91232E-02  2.26680E+02
   8 13 17  5.36919E-03  2.27480E+02
   8 14 14  1.38482E-03  2.26910E+02
   8 14 17  6.07393E-04  2.27710E+02
   9 12  0  1.22210E-04  1.94540E+02
   9 10 10  1.97751E-02  9.77400E+01
   9 10 11  5.93024E-02  1.22300E+02
   9 10 12  1.43881E-01  1.24910E+02
   9 10 13  2.28327E-02  1.60370E+02
   9 10 14  1.66505E-01  1.60600E+02
   9 10 17  8.22998E-04  1.61400E+02
   9 11 11  1.15212E-03  1.46860E+02
   9 11 12  5.60094E-02  1.49470E+02
   9 11 13  3.48005E-03  1.84930E+02
   9 11 14  1.27874E-01  1.85160E+02
   9 11 17  9.64035E-04  1.85960E+02
   9 12 12  2.88752E-02  1.52080E+02
   9 12 13  1.34969E-02  1.87540E+02
   9 12 14  2.18856E-01  1.87770E+02
   9 12 17  1.81058E-03  1.88570E+02
   9 13 13  4.70274E-04  2.23000E+02
   9 13 14  6.65913E-02  2.23230E+02
   9 13 17  4.23255E-04  2.24030E+02
   9 14 14  6.13710E-02  2.23460E+02
   9 14 17  5.38475E-03  2.24260E+02
  10 13 13  2.25239E-04  5.56300E+01
  10 13 14  1.24751E-02  5.58600E+01
  10 13 17  1.87167E-03  5.66600E+01
  10 14 14  3.61166E-03  5.60900E+01
  10 14 17  3.46805E-03  5.68900E+01
   3 30 30  1.76902E-02  3.88700E+01
   5 30 30  3.57587E-01  3.25397E+01
   6 30 30  3.49421E-02  1.12486E+01
  10 30  0  8.14280E-06  2.64762E+01
  10 30 30  9.78340E-01  1.94978E+01
  11 30  0  1.93855E-06  3.81277E+01
  11 30 30  9.99998E-01  3.13004E+01
  12 30  0  5.00139E-07  3.57129E+01
  12 30 30  1.00000E+00  2.87952E+01
 *** Electron ionisation cross sections,  IZ = 42,  NSHELL = 12,  NDATA = 619
 4.00000E+01 0.00000E+00 0.00000E+00 0.00000E+00 0.00000E+00 0.00000E+00 0.00000E+00 0.00000E+00 0.00000E+00 0.00000E+00 0.00000E+00 0.00000E+00 0.00000E+00
 4.20000E+01 0.00000E+00 0.00000E+00 0.00000E+00 0.00000E+00 0.00000E+00 0.00000E+00 0.00000E+00 0.00000E+00 0.00000E+00 0.00000E+00 0.00000E+00 0.00000E+00
 4.20000E+01 0.00000E+00 0.00000E+00 0.00000E+00 0.00000E+00 0.00000E+00 0.00000E+00 0.00000E+00 0.00000E+00 0.00000E+00 0.00000E+00 0.00000E+00 0.00000E+00
 4.24200E+01 0.00000E+00 0.00000E+00 0.00000E+00 0.00000E+00 0.00000E+00 0.00000E+00 0.00000E+00 0.00000E+00 0.00000E+00 0.00000E+00 0.00000E+00 3.09575E-19
 4.30025E+01 0.00000E+00 0.00000E+00 0.00000E+00 0.00000E+00 0.00000E+00 0.00000E+00 0.00000E+00 0.00000E+00 0.00000E+00 0.00000E+00 0.00000E+00 7.34130E-19
 4.35930E+01 0.00000E+00 0.00000E+00 0.00000E+00 0.00000E+00 0.00000E+00 0.00000E+00 0.00000E+00 0.00000E+00 0.00000E+00 0.00000E+00 0.00000E+00 1.15869E-18
 4.41916E+01 0.00000E+00 0.00000E+00 0.00000E+00 0.00000E+00 0.00000E+00 0.00000E+00 0.00000E+00 0.00000E+00 0.00000E+00 0.00000E+00 0.00000E+00 1.58324E-18
 4.47985E+01 0.00000E+00 0.00000E+00 0.00000E+00 0.00000E+00 0.00000E+00 0.00000E+00 0.00000E+00 0.00000E+00 0.00000E+00 0.00000E+00 0.00000E+00 2.00780E-18
 4.50000E+01 0.00000E+00 0.00000E+00 0.00000E+00 0.00000E+00 0.00000E+00 0.00000E+00 0.00000E+00 0.00000E+00 0.00000E+00 0.00000E+00 0.00000E+00 2.14753E-18
 4.50000E+01 0.00000E+00 0.00000E+00 0.00000E+00 0.00000E+00 0.00000E+00 0.00000E+00 0.00000E+00 0.00000E+00 0.00000E+00 0.00000E+00 0.00000E+00 2.14753E-18
 4.54500E+01 0.00000E+00 0.00000E+00 0.00000E+00 0.00000E+00 0.00000E+00 0.00000E+00 0.00000E+00 0.00000E+00 0.00000E+00 0.00000E+00 1.45968E-19 2.48221E-18
 4.60741E+01 0.00000E+00 0.00000E+00 0.00000E+00 0.00000E+00 0.00000E+00 0.00000E+00 0.00000E+00 0.00000E+00 0.00000E+00 0.00000E+00 3.46276E-19 2.94094E-18
 4.67068E+01 0.00000E+00 0.00000E+00 0.00000E+00 0.00000E+00 0.00000E+00 0.00000E+00 0.00000E+00 0.00000E+00 0.00000E+00 0.00000E+00 5.46584E-19 3.39979E-18
 4.73482E+01 0.00000E+00 0.00000E+00 0.00000E+00 0.00000E+00 0.00000E+00 0.00000E+00 0.00000E+00 0.00000E+00 0.00000E+00 0.00000E+00 7.46892E-19 3.85901E-18
 4.79983E+01 0.00000E+00 0.00000E+00 0.00000E+00 0.00000E+00 0.00000E+00 0.00000E+00 0.00000E+00 0.00000E+00 0.00000E+00 0.00000E+00 9.47200E-19 4.31824E-18
 4.86575E+01 0.00000E+00 0.00000E+00 0.00000E+00 0.00000E+00 0.00000E+00 0.00000E+00 0.00000E+00 0.00000E+00 0.00000E+00 0.00000E+00 1.14751E-18 4.77747E-18
 4.93256E+01 0.00000E+00 0.00000E+00 0.00000E+00 0.00000E+00 0.00000E+00 0.00000E+00 0.00000E+00 0.00000E+00 0.00000E+00 0.00000E+00 1.34782E-18 5.23670E-18
 5.00000E+01 0.00000E+00 0.00000E+00 0.00000E+00 0.00000E+00 0.00000E+00 0.00000E+00 0.00000E+00 0.00000E+00 0.00000E+00 0.00000E+00 1.55139E-18 5.69394E-18
 5.06896E+01 0.00000E+00 0.00000E+00 0.00000E+00 0.00000E+00 0.00000E+00 0.00000E+00 0.00000E+00 0.00000E+00 0.00000E+00 0.00000E+00 1.76558E-18 6.15397E-18
 5.13856E+01 0.00000E+00 0.00000E+00 0.00000E+00 0.00000E+00 0.00000E+00 0.00000E+00 0.00000E+00 0.00000E+00 0.00000E+00 0.00000E+00 1.97884E-18 6.64451E-18
 5.20913E+01 0.00000E+00 0.00000E+00 0.00000E+00 0.00000E+00 0.00000E+00 0.00000E+00 0.00000E+00 0.00000E+00 0.00000E+00 0.00000E+00 2.19211E-18 7.18204E-18
 5.28066E+01 0.00000E+00 0.00000E+00 0.00000E+00 0.00000E+00 0.00000E+00 0.00000E+00 0.00000E+00 0.00000E+00 0.00000E+00 0.00000E+00 2.40537E-18 7.71958E-18
 5.35317E+01 0.00000E+00 0.00000E+00 0.00000E+00 0.00000E+00 0.00000E+00 0.00000E+00 0.00000E+00 0.00000E+00 0.00000E+00 0.00000E+00 2.61863E-18 8.25711E-18
 5.42668E+01 0.00000E+00 0.00000E+00 0.00000E+00 0.00000E+00 0.00000E+00 0.00000E+00 0.00000E+00 0.00000E+00 0.00000E+00 0.00000E+00 2.83190E-18 8.79464E-18
 5.50000E+01 0.00000E+00 0.00000E+00 0.00000E+00 0.00000E+00 0.00000E+00 0.00000E+00 0.00000E+00 0.00000E+00 0.00000E+00 0.00000E+00 3.06338E-18 9.32359E-18
 5.57674E+01 0.00000E+00 0.00000E+00 0.00000E+00 0.00000E+00 0.00000E+00 0.00000E+00 0.00000E+00 0.00000E+00 0.00000E+00 0.00000E+00 3.32280E-18 9.88400E-18
 5.65332E+01 0.00000E+00 0.00000E+00 0.00000E+00 0.00000E+00 0.00000E+00 0.00000E+00 0.00000E+00 0.00000E+00 0.00000E+00 0.00000E+00 3.57814E-18 1.05332E-17
 5.73095E+01 0.00000E+00 0.00000E+00 0.00000E+00 0.00000E+00 0.00000E+00 0.00000E+00 0.00000E+00 0.00000E+00 0.00000E+00 0.00000E+00 3.83348E-18 1.11823E-17
 5.80965E+01 0.00000E+00 0.00000E+00 0.00000E+00 0.00000E+00 0.00000E+00 0.00000E+00 0.00000E+00 0.00000E+00 0.00000E+00 0.00000E+00 4.08882E-18 1.18315E-17
 5.88942E+01 0.00000E+00 0.00000E+00 0.00000E+00 0.00000E+00 0.00000E+00 0.00000E+00 0.00000E+00 0.00000E+00 0.00000E+00 0.00000E+00 4.34416E-18 1.24806E-17
 5.97030E+01 0.00000E+00 0.00000E+00 0.00000E+00 0.00000E+00 0.00000E+00 0.00000E+00 0.00000E+00 0.00000E+00 0.00000E+00 0.00000E+00 4.61554E-18 1.31298E-17
 6.00000E+01 0.00000E+00 0.00000E+00 0.00000E+00 0.00000E+00 0.00000E+00 0.00000E+00 0.00000E+00 0.00000E+00 0.00000E+00 0.00000E+00 4.72719E-18 1.33660E-17
 6.05228E+01 0.00000E+00 0.00000E+00 0.00000E+00 0.00000E+00 0.00000E+00 0.00000E+00 0.00000E+00 0.00000E+00 0.00000E+00 0.00000E+00 4.92371E-18 1.37974E-17
 6.13539E+01 0.00000E+00 0.00000E+00 0.00000E+00 0.00000E+00 0.00000E+00 0.00000E+00 0.00000E+00 0.00000E+00 0.00000E+00 0.00000E+00 5.23266E-18 1.44827E-17
 6.21964E+01 0.00000E+00 0.00000E+00 0.00000E+00 0.00000E+00 0.00000E+00 0.00000E+00 0.00000E+00 0.00000E+00 0.00000E+00 0.00000E+00 5.54161E-18 1.51681E-17
 6.30505E+01 0.00000E+00 0.00000E+00 0.00000E+00 0.00000E+00 0.00000E+00 0.00000E+00 0.00000E+00 0.00000E+00 0.00000E+00 0.00000E+00 5.85055E-18 1.58534E-17
 6.39163E+01 0.00000E+00 0.00000E+00 0.00000E+00 0.00000E+00 0.00000E+00 0.00000E+00 0.00000E+00 0.00000E+00 0.00000E+00 0.00000E+00 6.15950E-18 1.65388E-17
 6.47940E+01 0.00000E+00 0.00000E+00 0.00000E+00 0.00000E+00 0.00000E+00 0.00000E+00 0.00000E+00 0.00000E+00 0.00000E+00 0.00000E+00 6.47527E-18 1.72241E-17
 6.56837E+01 0.00000E+00 0.00000E+00 0.00000E+00 0.00000E+00 0.00000E+00 0.00000E+00 0.00000E+00 0.00000E+00 0.00000E+00 0.00000E+00 6.79569E-18 1.79095E-17
 6.65857E+01 0.00000E+00 0.00000E+00 0.00000E+00 0.00000E+00 0.00000E+00 0.00000E+00 0.00000E+00 0.00000E+00 0.00000E+00 0.00000E+00 7.11610E-18 1.85948E-17
 6.75000E+01 0.00000E+00 0.00000E+00 0.00000E+00 0.00000E+00 0.00000E+00 0.00000E+00 0.00000E+00 0.00000E+00 0.00000E+00 0.00000E+00 7.43652E-18 1.92802E-17
 6.80000E+01 0.00000E+00 0.00000E+00 0.00000E+00 0.00000E+00 0.00000E+00 0.00000E+00 0.00000E+00 0.00000E+00 0.00000E+00 0.00000E+00 7.60990E-18 1.96510E-17
 6.80000E+01 0.00000E+00 0.00000E+00 0.00000E+00 0.00000E+00 0.00000E+00 0.00000E+00 0.00000E+00 0.00000E+00 0.00000E+00 0.00000E+00 7.60990E-18 1.96510E-17
 6.86800E+01 0.00000E+00 0.00000E+00 0.00000E+00 0.00000E+00 0.00000E+00 0.00000E+00 0.00000E+00 0.00000E+00 0.00000E+00 3.70526E-20 7.84367E-18 2.01510E-17
 6.96231E+01 0.00000E+00 0.00000E+00 0.00000E+00 0.00000E+00 0.00000E+00 0.00000E+00 0.00000E+00 0.00000E+00 0.00000E+00 8.80756E-20 8.16408E-18 2.07899E-17
 7.00000E+01 0.00000E+00 0.00000E+00 0.00000E+00 0.00000E+00 0.00000E+00 0.00000E+00 0.00000E+00 0.00000E+00 0.00000E+00 1.08273E-19 8.29092E-18 2.10088E-17
 7.05792E+01 0.00000E+00 0.00000E+00 0.00000E+00 0.00000E+00 0.00000E+00 0.00000E+00 0.00000E+00 0.00000E+00 0.00000E+00 1.63879E-19 8.48441E-18 2.13440E-17
